# TR: NSLS/X11 EDC-5.02 15-Sep-92 04:05:24 E- ENERGY=2.584GEV
# Cu foil, 150K   x11 standard foil
# 2-SI111 HC/2D= 1977.260 STPDEG=6400. STPMMZ= 40. FOCUS=F TRANSLT=F
# E0= 8980.0 NREG= 3 NPTS= 636 NSCLRS= 3 EF=     .0
# SRB=   -205.8    -55.6     30.0   2381.3
# DEL=           10.020     .483     .050K
# SEC=             1.000    1.000    1.000
# DETECTORSI0      I       If
# GAINS           8       7      10
# OFFSETS     51284   50016   48319
# nsls 0.2p, Bruce Ravel   TR mode
# ----------------------------------------------------------------
#     energy              xmu
     8774.104            0.83825
     8784.130            0.81923
     8794.138            0.81490
     8804.168            0.81050
     8814.182            0.80592
     8824.217            0.80126
     8834.234            0.79693
     8844.233            0.79284
     8854.256            0.78835
     8864.259            0.78394
     8874.286            0.77983
     8884.336            0.77579
     8894.323            0.77169
     8904.377            0.76751
     8914.368            0.76367
     8924.426            0.76025
     8934.421            0.75678
     8934.894            0.75686
     8935.366            0.75675
     8935.882            0.75678
     8936.354            0.75639
     8936.826            0.75616
     8937.299            0.75614
     8937.858            0.75640
     8938.288            0.75599
     8938.761            0.75575
     8939.233            0.75558
     8939.792            0.75549
     8940.266            0.75524
     8940.696            0.75535
     8941.169            0.75512
     8941.728            0.75487
     8942.201            0.75475
     8942.675            0.75484
     8943.147            0.75455
     8943.621            0.75451
     8944.095            0.75447
     8944.568            0.75428
     8945.042            0.75430
     8945.516            0.75395
     8946.032            0.75395
     8946.506            0.75393
     8946.979            0.75376
     8947.453            0.75389
     8947.970            0.75364
     8948.444            0.75371
     8948.918            0.75376
     8949.392            0.75379
     8949.866            0.75364
     8950.383            0.75340
     8950.857            0.75332
     8951.332            0.75337
     8951.806            0.75322
     8952.280            0.75313
     8952.798            0.75348
     8953.272            0.75320
     8953.747            0.75345
     8954.222            0.75328
     8954.738            0.75321
     8955.213            0.75323
     8955.688            0.75335
     8956.163            0.75356
     8956.638            0.75341
     8957.155            0.75366
     8957.631            0.75344
     8958.105            0.75367
     8958.581            0.75370
     8959.056            0.75367
     8959.531            0.75401
     8960.049            0.75406
     8960.524            0.75438
     8961.000            0.75469
     8961.475            0.75532
     8961.950            0.75498
     8962.469            0.75530
     8962.944            0.75540
     8963.420            0.75575
     8963.896            0.75610
     8964.371            0.75674
     8964.890            0.75727
     8965.365            0.75752
     8965.842            0.75834
     8966.317            0.75854
     8966.793            0.75927
     8967.270            0.76002
     8967.788            0.76131
     8968.265            0.76231
     8968.741            0.76277
     8969.217            0.76420
     8969.693            0.76569
     8970.170            0.76712
     8970.688            0.76889
     8971.165            0.77186
     8971.642            0.77360
     8972.118            0.77641
     8972.595            0.77952
     8973.071            0.78444
     8973.592            0.79052
     8974.068            0.79687
     8974.545            0.80685
     8975.021            0.82042
     8975.499            0.83336
     8975.976            0.85529
     8976.452            0.90717
     8977.016            1.01237
     8977.493            1.13861
     8977.970            1.27934
     8978.404            1.36393
     8978.881            1.42438
     8979.358            1.44825
     8979.836            1.45456
     8980.399            1.43838
     8980.834            1.42962
     8981.312            1.41787
     8981.789            1.42502
     8982.267            1.44026
     8982.744            1.46483
     8983.222            1.50203
     8983.699            1.52877
     8984.221            1.55931
     8984.698            1.58121
     8985.177            1.62052
     8985.654            1.64649
     8986.133            1.68513
     8986.610            1.72497
     8987.089            1.78940
     8987.567            1.84567
     8988.089            1.90958
     8988.566            1.97937
     8989.045            2.03013
     8989.523            2.07605
     8990.002            2.13830
     8990.480            2.19338
     8990.959            2.23542
     8991.438            2.27006
     8992.003            2.28285
     8992.481            2.27773
     8992.917            2.26762
     8993.396            2.24783
     8993.875            2.22440
     8994.354            2.19937
     8994.833            2.17857
     8995.312            2.15260
     8995.791            2.13735
     8996.270            2.12753
     8996.792            2.12032
     8997.271            2.12292
     8997.751            2.13157
     8998.230            2.14952
     8998.710            2.17617
     8999.189            2.21569
     8999.669            2.23673
     9000.148            2.26344
     9000.628            2.28830
     9001.107            2.30406
     9001.587            2.30541
     9002.154            2.29299
     9002.591            2.27881
     9003.070            2.25834
     9003.550            2.23932
     9004.030            2.21716
     9004.510            2.18915
     9004.990            2.17101
     9005.471            2.15346
     9005.950            2.13686
     9006.431            2.12306
     9006.911            2.11056
     9007.391            2.09535
     9007.871            2.08203
     9008.439            2.06715
     9008.920            2.05971
     9009.400            2.05407
     9009.838            2.05295
     9010.317            2.05278
     9011.454            2.06254
     9012.503            2.07066
     9013.640            2.08787
     9014.777            2.10809
     9015.915            2.13709
     9017.096            2.16713
     9018.321            2.19542
     9019.504            2.22768
     9020.774            2.25942
     9022.001            2.28195
     9023.271            2.29720
     9024.586            2.29301
     9025.901            2.26760
     9027.218            2.23119
     9028.578            2.19767
     9029.938            2.15912
     9031.343            2.13164
     9032.748            2.11202
     9034.154            2.10125
     9035.604            2.09964
     9037.099            2.10797
     9038.594            2.11935
     9040.089            2.12903
     9041.585            2.12917
     9043.126            2.12276
     9044.755            2.12161
     9046.297            2.12920
     9047.883            2.14594
     9049.514            2.15651
     9051.146            2.15709
     9052.777            2.15624
     9054.454            2.16150
     9056.176            2.17635
     9057.898            2.19483
     9059.622            2.20751
     9061.346            2.21690
     9063.114            2.22758
     9064.928            2.24149
     9066.742            2.26053
     9068.557            2.27946
     9070.417            2.28936
     9072.277            2.28537
     9074.140            2.26794
     9076.047            2.23195
     9077.998            2.19495
     9079.906            2.16339
     9081.904            2.13756
     9083.859            2.11570
     9085.859            2.10604
     9087.904            2.09932
     9089.906            2.08025
     9091.998            2.04995
     9094.046            2.02212
     9096.140            2.00670
     9098.279            2.00900
     9100.374            2.02455
     9102.561            2.04675
     9104.702            2.07679
     9106.891            2.10316
     9109.124            2.12570
     9111.359            2.13680
     9113.595            2.13642
     9115.877            2.12804
     9118.159            2.12324
     9120.444            2.13223
     9122.773            2.16842
     9125.105            2.22345
     9127.527            2.27124
     9129.861            2.29152
     9132.241            2.28678
     9134.668            2.27052
     9137.096            2.25101
     9139.569            2.22592
     9142.045            2.19095
     9144.521            2.14011
     9147.045            2.08831
     9149.569            2.03237
     9152.140            1.97645
     9154.713            1.93434
     9157.286            1.91265
     9159.907            1.91825
     9162.529            1.95202
     9165.153            1.99798
     9167.823            2.04910
     9170.542            2.08781
     9173.215            2.11025
     9175.936            2.11738
     9178.703            2.10808
     9181.474            2.09345
     9184.244            2.08253
     9187.018            2.07722
     9189.837            2.07101
     9192.705            2.05608
     9195.528            2.04388
     9198.490            2.05235
     9201.318            2.08447
     9204.284            2.12767
     9207.161            2.15462
     9210.131            2.15967
     9213.103            2.15484
     9216.077            2.14097
     9219.099            2.11572
     9222.122            2.07673
     9225.193            2.03351
     9228.268            1.99236
     9231.297            1.96289
     9234.467            1.94354
     9237.547            1.93666
     9240.721            1.94322
     9243.897            1.95502
     9247.075            1.95966
     9250.257            1.96046
     9253.439            1.96342
     9256.672            1.96560
     9259.951            1.97009
     9263.233            1.97988
     9266.519            1.99264
     9269.806            2.00194
     9273.142            2.00777
     9276.526            2.01071
     9279.867            2.01150
     9283.257            2.01382
     9286.696            2.01794
     9290.091            2.02227
     9293.535            2.02694
     9297.028            2.02490
     9300.478            2.01065
     9304.022            1.99136
     9307.524            1.97180
     9311.074            1.95057
     9314.628            1.93364
     9318.230            1.92451
     9321.790            1.92534
     9325.446            1.92914
     9329.058            1.92746
     9332.719            1.91663
     9336.384            1.89907
     9340.098            1.88120
     9343.862            1.87904
     9347.536            1.88700
     9351.307            1.89084
     9355.080            1.89168
     9358.857            1.89638
     9362.637            1.90033
     9366.515            1.90329
     9370.396            1.90626
     9374.186            1.90913
     9378.073            1.91140
     9382.012            1.91302
     9385.906            1.91370
     9389.851            1.91342
     9393.800            1.91293
     9397.799            1.91049
     9401.802            1.90387
     9405.809            1.89296
     9409.865            1.87786
     9413.927            1.86174
     9417.992            1.85040
     9422.061            1.84507
     9426.181            1.84393
     9430.304            1.84534
     9434.479            1.84648
     9438.658            1.84432
     9442.842            1.84004
     9447.028            1.83109
     9451.268            1.82022
     9455.510            1.81249
     9459.805            1.81063
     9464.056            1.80913
     9468.358            1.80488
     9472.714            1.80052
     9477.024            1.79927
     9481.388            1.79936
     9485.804            1.80236
     9490.175            1.80531
     9494.600            1.80893
     9499.028            1.81233
     9503.559            1.81599
     9507.995            1.81698
     9512.485            1.81444
     9517.029            1.80724
     9521.528            1.79613
     9526.080            1.78080
     9530.637            1.76934
     9535.248            1.76262
     9539.862            1.75805
     9544.481            1.75477
     9549.155            1.75173
     9553.833            1.74984
     9558.466            1.74792
     9563.153            1.74469
     9567.943            1.74072
     9572.641            1.73723
     9577.441            1.73373
     9582.246            1.72808
     9586.958            1.72222
     9591.823            1.71944
     9596.643            1.71710
     9601.468            1.71575
     9606.348            1.71539
     9611.282            1.71374
     9616.173            1.71212
     9621.118            1.71101
     9626.068            1.71087
     9631.023            1.70968
     9636.035            1.70638
     9641.051            1.70235
     9646.072            1.69797
     9651.100            1.69378
     9656.232            1.69974
     9661.271            1.71579
     9666.364            1.71701
     9671.463            1.71109
     9676.618            1.70013
     9681.778            1.69815
     9686.945            1.69491
     9692.168            1.69076
     9697.396            1.68468
     9702.682            1.68195
     9707.871            1.68024
     9713.168            1.67584
     9718.471            1.66967
     9723.779            1.66686
     9729.094            1.66373
     9734.466            1.66056
     9739.844            1.65723
     9745.278            1.65561
     9750.617            1.65688
     9756.065            1.65435
     9761.519            1.64852
     9766.979            1.64322
     9772.444            1.63969
     9778.021            1.63743
     9783.499            1.63400
     9789.036            1.62982
     9794.631            1.62728
     9800.181            1.62447
     9805.788            1.62169
     9811.403            1.61799
     9817.024            1.61260
     9822.652            1.60645
     9828.339            1.60077
     9834.084            1.59586
     9839.837            1.59168
     9845.491            1.58863
     9851.258            1.58488
     9857.030            1.58146
     9862.811            1.57826
     9868.598            1.57480
     9874.444            1.57219
     9880.297            1.56911
     9886.158            1.56555
     9892.025            1.56215
     9897.953            1.55824
     9903.889            1.55453
     9909.831            1.55109
     9915.780            1.54786
     9921.737            1.54500
     9927.755            1.54178
     9933.779            1.53803
     9939.813            1.53399
     9945.853            1.53012
     9951.953            1.52576
     9958.063            1.52249
     9964.179            1.51938
     9970.302            1.51572
     9976.434            1.51160
     9982.627            1.50755
     9988.827            1.50263
     9995.037            1.49848
    10001.250            1.49458
    10007.480            1.49044
    10013.760            1.48615
    10020.110            1.48248
    10026.360            1.47892
    10032.670            1.47523
    10038.990            1.47148
    10045.380            1.46799
    10051.770            1.46472
    10058.160            1.46121
    10064.570            1.45841
    10070.990            1.45527
    10077.460            1.45162
    10083.950            1.44804
    10090.450            1.44381
    10097.010            1.44004
    10103.460            1.43648
    10110.040            1.43249
    10116.630            1.42896
    10123.220            1.42472
    10129.820            1.42074
    10136.430            1.41742
    10143.050            1.41353
    10149.740            1.40988
    10156.430            1.40647
    10163.190            1.40276
    10169.850            1.39923
    10176.620            1.39551
    10183.350            1.39166
    10190.150            1.38806
    10196.950            1.38418
    10203.770            1.38059
    10210.590            1.37700
    10217.480            1.37322
    10224.320            1.37002
    10231.230            1.36646
    10238.200            1.36303
    10245.070            1.35985
    10252.010            1.35590
    10259.010            1.35215
    10266.030            1.34905
    10273.050            1.34514
    10280.080            1.34174
    10287.070            1.33777
    10294.120            1.33404
    10301.290            1.33072
    10308.370            1.32682
    10315.450            1.32305
    10322.660            1.31932
    10329.760            1.31558
    10336.980            1.31204
    10344.220            1.30774
    10351.350            1.30399
    10358.610            1.30041
    10365.880            1.29660
    10373.160            1.29304
    10380.450            1.28929
    10387.750            1.28563
    10395.060            1.28207
    10402.440            1.27821
    10409.770            1.27475
    10417.170            1.27106
    10424.580            1.26736
    10432.010            1.26395
    10439.500            1.26024
    10446.940            1.25656
    10454.400            1.25297
    10461.920            1.24931
    10469.520            1.24574
    10477.010            1.24215
    10484.560            1.23863
    10492.130            1.23449
    10499.710            1.23064
    10507.360            1.22719
    10514.970            1.22323
    10522.640            1.21950
    10530.330            1.21555
    10538.020            1.21213
    10545.730            1.20843
    10553.450            1.20443
    10561.240            1.20079
    10568.990            1.19711
    10576.800            1.19340
    10584.570            1.18957
    10592.410            1.18574
    10600.260            1.18224
    10608.120            1.17852
    10616.060            1.17475
    10623.940            1.17095
    10631.840            1.16698
    10639.810            1.16332
    10647.730            1.15959
    10655.730            1.15612
    10663.740            1.15233
    10671.760            1.14822
    10679.790            1.14489
    10687.840            1.14103
    10695.890            1.13710
    10704.090            1.13381
    10712.110            1.12982
    10720.260            1.12590
    10728.500            1.12199
    10736.620            1.11837
    10744.750            1.11495
    10752.960            1.11110
    10761.240            1.10721
    10769.470            1.10344
    10777.720            1.09959
    10786.040            1.09586
    10794.310            1.09214
    10802.660            1.08862
    10810.960            1.08491
    10819.330            1.08107
    10827.720            1.07721
    10836.120            1.07373
    10844.530            1.07013
    10852.960            1.06620
    10861.470            1.06271
    10869.920            1.05885
    10878.390            1.05511
    10887.000            1.05154
    10895.490            1.04800
    10904.000            1.04420
    10912.590            1.04036
    10921.190            1.03689
    10929.870            1.03316
    10938.430            1.02948
    10947.070            1.02593
    10955.790            1.02200
    10964.390            1.01856
    10973.140            1.01490
    10981.840            1.01161
    10990.550            1.00781
    10999.340            1.00427
    11008.150            1.00047
    11016.900            0.99706
    11025.740            0.99355
    11034.580            0.98978
    11043.450            0.98632
    11052.330            0.98292
    11061.220            0.97918
    11070.120            0.97560
    11079.040            0.97180
    11087.980            0.96854
